Data extracted from	"GEN3-1289"	"/LOG/2021/09/14/GEN3-1289_0253.gen"
Experiment:	"initial T gblock vs T 1* primer"
Time:	14 September 2021 16:31
User:	""
Kit:	""



"DATA"	"Anneal"	"Derivative"
314	"Rows"	16	"Columns"
0	0	1	1	2	2	3	3	4	4	5	5	6	6	7	7	
Blue	Blue	Blue	Blue	Blue	Blue	Blue	Blue	Blue	Blue	Blue	Blue	Blue	Blue	Blue	Blue	
°C	F/°C	°C	F/°C	°C	F/°C	°C	F/°C	°C	F/°C	°C	F/°C	°C	F/°C	°C	F/°C	
96.7595	370.256	96.7306	61.4138	96.7395	0	96.7439	-1.4775	96.7544	-46.3067	96.7445	278.011	96.742	109.213	96.7512	90.6939	
96.7041	195.94	96.6747	106.675	96.6838	126.192	96.6885	193.701	96.6988	10.3891	96.689	222.48	96.6865	139.383	96.6958	23.7071	
96.6489	367.915	96.619	107.239	96.6273	-141.99	96.6328	102.438	96.6441	34.012	96.6331	206.837	96.6308	141.484	96.6406	143.158	
96.5939	140.143	96.5639	141.574	96.5708	221.859	96.5763	94.162	96.5886	115.69	96.5771	250.699	96.5747	145.25	96.5852	66.7259	
96.5379	209.595	96.5093	4.5528	96.5154	-149.584	96.5198	127.419	96.5328	147.315	96.5208	85.5326	96.5181	-52.6388	96.5295	175.738	
96.4824	174.322	96.4545	253.726	96.4601	144.903	96.4644	27.1971	96.4767	342.272	96.4652	95.1669	96.4631	22.6828	96.4734	-2.99484	
96.4251	13.4811	96.4006	-62.8275	96.4056	16.6847	96.4091	105.658	96.4204	-39.0149	96.41	83.1061	96.4076	-153.09	96.4168	136.861	
96.3692	99.1627	96.346	226.374	96.3505	57.6221	96.3546	81.9067	96.3648	101.209	96.3557	-47.0597	96.3534	-51.666	96.3618	81.6582	
96.3135	-18.1249	96.2922	-133.337	96.2969	130.267	96.2995	94.0149	96.3096	-265.94	96.3011	106.708	96.2991	-28.979	96.3063	160.668	
96.2584	45.1832	96.2357	52.3974	96.2422	-108.139	96.2459	116.474	96.2553	-217.082	96.2475	-194.644	96.2451	113.743	96.2521	173.233	
96.2038	39.4576	96.182	-79.9782	96.189	-15.5304	96.1912	-54.0694	96.2008	-103.659	96.1931	65.176	96.1915	124.709	96.1977	167.773	
96.1491	22.6541	96.1282	-73.0795	96.1332	-65.1205	96.138	6.21216	96.1471	-193.111	96.1393	-42.0747	96.1373	51.3977	96.1438	122.966	
96.0951	10.7267	96.0472	97.2851	96.08	65.3206	96.0822	-54.2671	96.0927	260.704	96.0839	32.6886	96.0817	145.936	96.0902	60.7955	
96.0405	35.419	95.9567	31.9467	96.0285	122.46	96.029	-138.417	96.0389	-76.3578	96.0315	114.402	96.029	-68.8083	96.0359	-14.0176	
95.9867	-37.2104	95.84	156.384	95.9543	142.093	95.9775	31.8078	95.9835	289.528	95.981	-38.4178	95.9786	-4.79	95.9803	-29.4976	
95.9302	174.144	95.7151	79.5264	95.8698	123.42	95.9033	4.17919	95.9311	133.208	95.9058	121.812	95.8994	-83.3227	95.9277	-34.4042	
95.8765	21.5326	95.6048	97.6826	95.7589	198.819	95.8187	201.744	95.8806	163.276	95.8217	83.2467	95.8108	28.3583	95.8772	-98.9934	
95.8228	194.36	95.5141	65.6209	95.6362	96.7947	95.7079	170.018	95.8054	85.4081	95.7096	24.14	95.6923	63.2841	95.7981	204.892	
95.7418	22.3493	95.4102	27.4106	95.5217	75.4509	95.5852	200.291	95.7214	-5.9462	95.5863	77.8853	95.5651	71.02	95.7094	0	
95.6512	23.1339	95.3127	27.5719	95.4253	53.8078	95.4707	174.166	95.6092	59.4216	95.4727	10.6453	95.4536	78.8083	95.591	161.726	
95.5345	50.6959	95.1999	18.6171	95.3216	36.4061	95.3742	102.571	95.4859	-16.3188	95.3767	60.2581	95.3635	41.4409	95.4638	22.5014	
95.4096	3.488	95.0843	-19.2761	95.2252	85.2696	95.2706	60.1253	95.3724	29.4312	95.2732	42.3976	95.2626	2.75446	95.3522	20.4541	
95.2994	36.7817	94.9801	115.38	95.1155	98.8522	95.1742	27.0789	95.2763	3.90562	95.1764	29.8745	95.1677	-11.2374	95.2622	16.3582	
95.2086	73.8925	94.9098	-72.8942	95.0014	86.9416	95.0645	-48.7582	95.1728	68.2767	95.0663	62.1616	95.0574	-17.1201	95.1613	-28.0955	
95.1047	85.5883	94.8582	387.935	94.8923	149.927	94.9504	-79.4178	95.076	23.5549	94.9509	-25.1401	94.9423	0	95.0664	44.9497	
95.0072	118.679	94.841	123.813	94.8123	67.4038	94.8413	-49.6162	94.9659	166.433	94.8416	23.7158	94.8359	80.4191	94.9561	12.8401	
94.8944	173.998	94.8402	1609.7	94.7521	285.794	94.7613	-110.842	94.8505	96.3703	94.7621	-90.0921	94.7653	93.021	94.8409	46.7613	
94.7789	124.836	94.8418	-619.726	94.7267	-7.75138	94.7011	186.948	94.7412	161.699	94.7018	-97.9611	94.7135	542.866	94.7346	66.8097	
94.6746	132.033	94.8347	-38.5937	94.7217	881.049	94.6757	224.79	94.6618	220.726	94.6769	38.8892	94.6999	371.576	94.664	66.188	
94.6044	14.9102	94.8343	-82.915	94.7245	473.428	94.6706	1979.17	94.6014	25.5551	94.6725	1479.68	94.7036	14147.7	94.6122	23.6029	
94.5528	-71.3991	94.8287	-99.3748	94.7203	-184.09	94.6735	-1003.22	94.5765	287.78	94.6754	-1979.48	94.711	-1045.7	94.5986	99.8264	
94.5356	165.084	94.8375	191.217	94.7217	32.7516	94.6693	-447.673	94.5721	-581.755	94.6705	-809.391	94.7055	-279.285	94.6023	-149.711	
94.5347	-1349.31	94.845	-974.271	94.7171	202.712	94.6707	-327.516	94.5751	-579.626	94.6722	-584.501	94.7068	-322.989	94.6097	-401.658	
94.5364	-1356.7	94.8495	-1282.26	94.7243	-80.5111	94.6661	-184.284	94.5702	-94.4974	94.6668	-275.979	94.6998	168.449	94.6042	-261.83	
94.5292	-277.875	94.8429	106.113	94.7315	661.937	94.6733	-165.048	94.5718	-117.553	94.6749	-305.417	94.7084	-350.023	94.6055	-46.1413	
94.5288	-291.861	94.8249	-185.73	94.7378	252.98	94.6805	-263.077	94.5665	-72.7858	94.6825	613.546	94.7159	1163.17	94.5984	-284.833	
94.5232	-476.999	94.7962	-55.5812	94.7342	278.273	94.6868	730.832	94.5745	-20.0932	94.6887	-2169.29	94.7203	316.689	94.6071	107.34	
94.5321	102.963	94.7604	117.069	94.7202	-19.2729	94.6832	-54.5633	94.5821	-302.571	94.6853	-390.757	94.7137	-161.808	94.6146	15.9339	
94.5396	-129.903	94.7166	71.2849	94.6948	171.147	94.6692	109.213	94.5883	-209.088	94.6704	-296.781	94.6937	90.0638	94.619	37.2575	
94.544	-821.098	94.6717	268.35	94.661	109.577	94.6438	-24.1052	94.585	352.767	94.6453	146.621	94.663	75.9936	94.6124	-268.364	
94.5374	150.327	94.6043	232.093	94.6195	-45.935	94.6099	163.369	94.57	-51.0591	94.6113	-73.5254	94.624	94.2169	94.5924	150.989	
94.5194	-58.9618	94.5239	257.947	94.576	277.906	94.5685	86.5698	94.5449	-12.0181	94.5699	138.777	94.5787	158.602	94.5616	-234.313	
94.4907	199.166	94.4238	96.4356	94.5134	-55.7267	94.5249	246.846	94.5109	254.358	94.5269	111.639	94.5329	-118.338	94.5227	202.929	
94.4549	21.4626	94.3194	71.1132	94.4378	213.817	94.4624	25.72	94.4695	-117.697	94.4638	71.2255	94.465	63.3641	94.4774	-63.7677	
94.4112	114.751	94.2217	-84.7183	94.3419	53.1765	94.3868	118.515	94.4265	210.143	94.3879	235.085	94.3833	-62.5007	94.4316	132.352	
94.3662	-40.1721	94.1322	22.1433	94.2386	31.1577	94.2909	-41.1365	94.3634	-45.5843	94.2912	-28.9978	94.2802	16.0767	94.3636	141.558	
94.2989	-28.8399	94.0309	-47.2651	94.1386	124.502	94.1876	-14.3157	94.2875	22.0392	94.1878	133.564	94.1734	-16.7941	94.282	93.751	
94.2185	-21.9776	93.9205	26.468	94.0471	-13.9641	94.0876	26.5212	94.1908	66.9949	94.0879	-33.8535	94.0737	7.0989	94.1788	110.645	
94.1183	-76.5812	93.7975	84.2827	93.9478	66.5532	93.9961	-35.9076	94.0875	-63.8421	93.9978	22.5572	93.9861	70.559	94.0721	-3.99858	
94.0139	1.59805	93.6783	38.0901	93.8412	19.7688	93.8968	138.866	93.9875	114.808	93.8973	20.4616	93.8863	34.9697	93.9723	46.1429	
93.9162	31.3244	93.5825	209.157	93.7212	33.642	93.7901	-17.218	93.8974	-10.6152	93.7907	-22.9008	93.7782	122.059	93.8848	36.2505	
93.8268	76.199	93.5156	157.927	93.6001	76.1021	93.6702	210.599	93.7969	111.899	93.6693	95.4512	93.655	56.1155	93.785	22.8892	
93.7254	40.878	93.4725	230.647	93.4969	85.1665	93.5491	-38.7828	93.6903	53.4352	93.548	38.7221	93.5337	74.9075	93.6768	43.0418	
93.6151	105.872	93.4462	330.2	93.4202	121.557	93.4459	100.877	93.5689	57.1363	93.4457	138.036	93.437	63.2718	93.5536	41.5671	
93.492	62.1757	93.4216	-694.539	93.3699	229.698	93.3692	5.9782	93.4477	69.4075	93.3696	128.283	93.3701	122.903	93.4324	52.741	
93.3729	141.695	93.3914	-296.982	93.3392	272.863	93.3189	-142.893	93.3454	-2.47968	93.3198	154.161	93.3311	106.46	93.3357	57.1204	
93.277	93.7301	93.3645	139.04	93.3159	1328.16	93.2882	200.099	93.2692	149.166	93.2891	105.907	93.3082	309.263	93.2688	-51.1189	
93.2102	145.035	93.3465	157.246	93.2878	-332.216	93.2649	-1439.45	93.2194	54.9619	93.2656	-425.431	93.2889	1408.85	93.2298	-24.6863	
93.1671	131.798	93.3296	-0	93.2632	-61.9175	93.2368	-1311.83	93.1888	225.629	93.2373	1082.84	93.2605	-255.564	93.2068	-132.983	
93.1408	163.664	93.3152	-51.1778	93.2436	-97.6315	93.2122	305.945	93.1653	441.187	93.2128	140.319	93.2356	12.0393	93.1876	-923.042	
93.1161	2475.41	93.2854	194.514	93.2276	797.485	93.1925	-232.296	93.1369	-318.484	93.1936	281.847	93.2183	262.734	93.1591	-204.452	
93.0859	-42.426	93.2429	180.471	93.2135	15.8453	93.1765	-624.604	93.1124	-57.5666	93.1777	-326.442	93.2032	-190.48	93.1343	9.02948	
93.0591	-409.99	93.1978	156.223	93.1886	-405.796	93.1624	-808.108	93.0932	315.005	93.1642	1359.92	93.1905	-1160.17	93.1169	-233.897	
93.0411	90.4162	93.1505	126.16	93.15	112.197	93.1376	614.033	93.0774	163.221	93.1384	335.115	93.1615	14.3114	93.1019	-542.134	
93.0242	-593.51	93.0951	115.089	93.1069	36.6772	93.099	20.9435	93.0638	-2200.32	93.0998	167.263	93.1191	14.0896	93.0892	542.769	
93.0097	-22.7457	93.0262	87.735	93.0602	123.25	93.0559	200.057	93.038	-109.96	93.0558	79.4931	93.0716	46.5408	93.0602	374.141	
92.98	4.09504	92.9384	118.922	93.0071	192.232	93.0092	76.6673	92.9994	-125.817	93.0099	56.9454	93.024	122.129	93.0177	106.313	
92.9374	81.673	92.8561	-21.5798	92.9421	46.9515	92.9561	9.42313	92.9554	-59.6198	92.9562	-71.4299	92.9675	69.5028	92.9702	131.528	
92.8924	-17.9445	92.7961	148.599	92.8579	162.406	92.8911	123.248	92.9096	63.7017	92.8909	8.75721	92.8992	139.537	92.9227	64.2784	
92.8451	64.5248	92.7687	-143.089	92.7732	-48.8657	92.8069	25.31	92.8558	-8.45881	92.8052	9.46535	92.8088	66.1755	92.8662	55.6022	
92.7897	58.0281	92.7634	58.0116	92.7042	39.3626	92.7221	116.801	92.7905	189.739	92.7202	153.097	92.7224	178.63	92.7979	18.6704	
92.7207	0	92.7587	-712.59	92.6659	-202.977	92.6531	35.1452	92.7048	123.05	92.6517	158.995	92.6576	145.303	92.7075	18.4424	
92.633	35.5654	92.7381	274.315	92.6535	-42.4548	92.6149	14.629	92.6198	234.985	92.6142	318.145	92.6281	115.257	92.621	-1.24048	
92.5507	22.8492	92.7115	-310.642	92.649	-219.931	92.6024	48.1154	92.5513	229.346	92.6026	419.663	92.6248	404.522	92.5563	88.38	
92.4906	60.6527	92.6904	-126.725	92.6336	-938.603	92.598	-146.62	92.5138	228.552	92.5978	352.214	92.624	830.103	92.5268	32.353	
92.4632	163.531	92.6836	-664.386	92.6105	-806.728	92.5826	684.398	92.5022	85.6456	92.582	-1090.25	92.606	-902.762	92.5235	147.411	
92.4579	545.991	92.6865	625.808	92.5889	-483.233	92.5595	-111.456	92.4974	455.806	92.5583	358.863	92.5787	-43.2068	92.5227	348.884	
92.4532	901.872	92.6885	125.648	92.5786	-1143.32	92.5379	-163.74	92.4816	847.97	92.5373	185.632	92.5557	-195.98	92.5047	821.513	
92.4326	-1209.02	92.6686	-58.4656	92.5788	-2015.93	92.5276	-541.306	92.458	-666.459	92.5272	341.634	92.5475	221.012	92.4774	-64.8101	
92.406	-215.06	92.6395	-156.895	92.582	1205.61	92.5277	-2785.65	92.4369	7.89923	92.5282	911.805	92.5501	-2460.16	92.4544	249.778	
92.3849	76.0352	92.5856	-82.3173	92.5678	365.892	92.531	899.963	92.4269	-547.62	92.5321	50.9743	92.5549	-206.787	92.4462	-453.657	
92.3781	-53.6878	92.5363	-35.2264	92.5444	13.2461	92.5168	197.263	92.4278	-2051.56	92.517	-25.1989	92.5341	-55.2263	92.4488	-3553.57	
92.3811	-10986.4	92.483	15.0024	92.4959	73.8732	92.4933	75.061	92.4318	501.248	92.4942	-15.4992	92.5067	-184.896	92.4536	594.513	
92.383	738.183	92.4337	108.687	92.4471	-102.24	92.4448	11.2416	92.4166	529.177	92.444	-3.19306	92.4482	-49.2414	92.4328	-90.3702	
92.3632	-74.4108	92.3817	108.91	92.3927	-31.2902	92.396	-8.28975	92.3938	-15.4992	92.3961	-129.9	92.3967	-25.8011	92.4054	63.558	
92.3341	257.469	92.3291	150.435	92.3424	-14.2742	92.3416	-70.09	92.3436	183.601	92.3416	12.5151	92.34	-19.2087	92.3468	-75.3104	
92.2801	234.757	92.2601	69.6508	92.2896	-157.772	92.2914	42.8227	92.2957	31.7841	92.2916	-30.7825	92.2896	-12.6764	92.2954	-11.6105	
92.2309	-14.9035	92.2048	119.036	92.2377	21.9726	92.2386	82.6423	92.2412	31.2878	92.2387	16.3358	92.2362	22.6919	92.2387	3.60164	
92.1775	85.0135	92.141	0	92.1707	-125.422	92.1867	164.149	92.1912	41.438	92.187	195.59	92.1841	64.8076	92.1883	57.6201	
92.1282	-24.1527	92.0776	-36.9056	92.1141	133.222	92.1197	103.289	92.1383	-115.607	92.119	123.191	92.1119	10.6899	92.1349	155.061	
92.0763	-62.2343	92.0141	17.1607	92.0508	105.559	92.0631	152.958	92.0866	-5.14709	92.0635	250.597	92.0564	112.619	92.0827	104.988	
92.0236	-33.5793	91.9394	-47.8894	91.9881	140.483	91.9998	163.616	92.0186	-166.233	91.9999	137.394	91.9922	84.1709	92.0105	187.837	
91.9546	-9.28678	91.867	77.735	91.9252	295.894	91.9371	29.484	91.9631	-82.4331	91.9369	137.618	91.9286	102.427	91.9551	39.2462	
91.8993	173.452	91.8008	46.6923	91.8524	9.12095	91.8742	144.154	91.8995	-72.2199	91.8747	45.4454	91.8664	192.421	91.8909	66.2622	
91.8355	160.17	91.7324	151.96	91.7805	177.722	91.8014	-75.5736	91.8365	-33.0981	91.8009	-49.5275	91.7909	38.6904	91.8273	-86.8027	
91.7722	167.753	91.6684	269.029	91.7132	-40.1729	91.7295	-9.05592	91.7744	240.86	91.7293	4.52019	91.718	104.275	91.7651	53.9361	
91.7086	32.8913	91.5998	184.77	91.6441	-21.7265	91.6622	-36.1556	91.7005	75.5946	91.6625	-49.1214	91.653	-39.8969	91.6896	-6.24039	
91.6339	72.448	91.5298	433.33	91.58	-21.7816	91.593	-5.66777	91.629	277.992	91.5932	-81.1965	91.5842	-56.823	91.6167	104.275	
91.5615	-126.319	91.471	76.0323	91.5117	-35.1801	91.529	89.9673	91.5621	56.1388	91.53	107.242	91.5222	-30.4814	91.5516	63.2512	
91.4953	14.5913	91.409	345.083	91.4421	101.864	91.4607	7.03602	91.4928	132.18	91.4612	-84.4996	91.4535	-76.6224	91.4829	95.0155	
91.427	-69.4138	91.3581	118.338	91.3814	14.0289	91.3911	135.056	91.4296	43.6559	91.3915	150.535	91.384	123.469	91.4209	193.366	
91.363	0	91.312	-38.977	91.319	201.414	91.3304	61.7272	91.3608	-63.3747	91.3312	-12.716	91.3256	127.94	91.3522	95.2603	
91.2943	131.531	91.2671	64.3667	91.2654	201.734	91.268	268.551	91.2912	-1.14912	91.2686	86.4728	91.2645	283.134	91.2827	144.047	
91.2244	67.9733	91.2271	33.5936	91.2182	454.809	91.2144	252.167	91.2308	-186.501	91.2153	238.731	91.2139	357.946	91.2243	-18.4973	
91.1656	345.186	91.1969	15.9505	91.1726	210.127	91.1671	398.597	91.1682	19.024	91.1685	-150.49	91.1688	178.797	91.1631	5.70068	
91.1036	90.9088	91.1684	118.094	91.1312	513.817	91.1215	329.014	91.1149	-37.578	91.1224	622.992	91.1249	109.057	91.1125	-49.0337	
91.0527	580.088	91.1475	189.417	91.0991	91.259	91.0802	424.575	91.0681	124.984	91.0816	111.011	91.0848	51.2116	91.0675	-123.783	
91.0066	184.491	91.1281	28.5119	91.0693	241.473	91.0481	187.321	91.022	251.966	91.05	376.602	91.0557	-62.6417	91.0236	-86.0975	
90.9616	388.882	91.1057	403.231	91.0472	278.361	91.0182	157.794	90.9812	300.543	91.0202	317.686	91.0267	-9.41677	90.9834	61.993	
90.9217	273.917	91.0774	-188.654	91.0274	145.304	90.9962	83.9882	90.9496	299.843	90.9981	168.146	91.0068	52.3289	90.9544	106.723	
90.8915	198.242	91.0445	690.13	91.0067	301.589	90.9764	-169.521	90.9198	226.231	90.9782	100.274	90.9872	71.6015	90.9254	127.126	
90.863	495.993	91.0163	70.1468	90.98	-25.5153	90.9557	26.5133	90.8978	69.6604	90.9573	-6.68752	90.9658	354.005	90.9055	275.916	
90.842	138.42	90.9886	-89.4201	90.9491	-136.187	90.929	182.86	90.8779	0	90.931	-38.6023	90.937	118.095	90.8858	-245.097	
90.8227	424.827	90.9644	118.421	90.9197	27.7766	90.8981	539.301	90.8569	30.0938	90.8996	86.695	90.9031	133.798	90.8645	416.476	
90.8002	-73.3147	90.9382	-67.9677	90.8913	-338.537	90.8687	494.423	90.8306	-162.988	90.871	143.538	90.8737	470.233	90.8356	-295.238	
90.7719	99.0433	90.9059	-12.6576	90.8658	91.002	90.8403	348.21	90.7993	260.085	90.842	225.746	90.8444	-87.294	90.8018	568.642	
90.739	-222.245	90.8679	5.60584	90.8399	191.458	90.8148	247.525	90.7706	-55.2068	90.817	61.5736	90.8189	422.719	90.7724	427.484	
90.7108	-178.065	90.8264	17.4212	90.8095	33.5646	90.7889	207.868	90.7416	581.176	90.7908	73.5885	90.7919	12.2713	90.7431	-148.4	
90.6831	22.355	90.7818	-13.2553	90.7735	391.07	90.7585	-138.734	90.7166	257.16	90.7605	11.1329	90.7595	20.4175	90.7176	335.594	
90.659	-338.815	90.7347	122	90.733	-51.1786	90.7224	217.689	90.6904	188.059	90.724	-46.3439	90.7206	123.461	90.6906	-159.527	
90.6327	234.111	90.6847	-21.0828	90.6892	235.953	90.682	-90.0038	90.6601	-8.90631	90.6842	114.841	90.6782	-191.606	90.6581	-34.7097	
90.6004	-145.563	90.6336	183.709	90.6426	30.7457	90.6382	207.705	90.6237	-86.8947	90.64	-68.3639	90.6321	62.8913	90.6192	-201.532	
90.5625	97.1679	90.5812	169.964	90.5933	57.995	90.5916	216.838	90.5838	-113.074	90.5937	150.732	90.5835	-129.766	90.5769	-11.7653	
90.521	-88.8482	90.5295	278.613	90.5423	118.982	90.5423	99.8803	90.5396	-110.049	90.5443	-14.5354	90.533	38.2064	90.5308	24.189	
90.4763	14.9122	90.4776	299.996	90.4898	48.7498	90.4913	319.966	90.4933	35.657	90.4932	37.093	90.4805	35.1395	90.4821	96.5336	
90.4293	157.787	90.4276	234.595	90.4374	175.354	90.4388	19.4999	90.4439	-29.0708	90.4413	58.7247	90.4281	59.7617	90.4317	345.45	
90.3792	87.5749	90.3791	47.863	90.3853	84.7529	90.3864	396.169	90.3928	161.274	90.389	-4.87994	90.3751	228.306	90.3792	151.739	
90.3281	250.364	90.3298	48.3199	90.3347	34.202	90.3343	60.305	90.3409	135.393	90.3369	124.042	90.3227	108.517	90.3268	416.717	
90.2757	169.964	90.2798	-156.678	90.2858	-55.8144	90.2836	210.098	90.2886	307.436	90.2864	62.0544	90.2718	104.114	90.2737	92.294	
90.224	84.7245	90.2279	-11.8142	90.2365	-28.2691	90.2348	24.624	90.2365	182.799	90.2378	102.17	90.2232	21.2697	90.2214	204.076	
90.1721	174.454	90.1753	38.6113	90.1871	-11.7562	90.1854	98.1103	90.186	93.0816	90.1886	28.4241	90.1737	64.8789	90.1705	6.50715	
90.1221	-94.4898	90.1233	135.869	90.1357	150.669	90.1361	8.39731	90.1374	159.846	90.1394	0	90.124	-100.44	90.1218	-121.074	
90.0736	112.23	90.0727	342.212	90.0835	158.306	90.0847	37.2441	90.0882	-71.8963	90.088	18.6661	90.0727	76.02	90.0724	86.5052	
90.0243	-31.6579	90.0209	324.249	90.0314	247.101	90.0325	37.0503	90.039	13.4509	90.0354	-74.1281	90.0192	120.696	90.0226	-175.769	
89.9743	62.3342	89.9681	413.447	89.9804	168.162	89.9804	-105.185	89.9876	-130.663	89.9838	-70.2369	89.9673	74.5989	89.9714	-54.0587	
89.9224	207.593	89.9135	184.975	89.9293	167.381	89.9294	174.693	89.935	6.73892	89.933	8.16729	89.9162	259.443	89.9179	-107.285	
89.8699	21.8238	89.8579	145.382	89.8766	180.964	89.8783	-121.152	89.8834	-1.67231	89.882	-42.9708	89.865	12.6231	89.866	-16.5775	
89.8178	334.701	89.803	-56.078	89.8229	178.607	89.8256	270.673	89.8326	-16.3346	89.8295	148.912	89.8123	334.143	89.8149	-158.909	
89.7673	111.38	89.7458	-13.0787	89.7672	202.515	89.7719	33.2997	89.7816	120.955	89.7757	66.6917	89.7582	22.5179	89.7637	148.321	
89.7154	225.085	89.6854	-70.7686	89.7126	118.3	89.7162	148.908	89.7291	-102.377	89.7201	394.078	89.7024	113.276	89.7109	29.2568	
89.6627	240.412	89.6223	67.0949	89.656	143.061	89.6616	212.94	89.6754	50.0188	89.6658	51.9185	89.6475	202.607	89.6568	156.124	
89.6081	142.867	89.5566	57.6826	89.597	54.1573	89.605	87.5886	89.6197	-22.4759	89.6094	343.009	89.5912	-40.9884	89.601	287.661	
89.5524	253.676	89.4916	176.967	89.5345	186.945	89.546	302.141	89.5654	34.1179	89.5501	65.7734	89.5312	203.811	89.5462	1.47888	
89.4975	159.38	89.4298	66.2463	89.4695	94.3279	89.4835	177.252	89.509	57.1682	89.4882	40.2436	89.4683	-28.9005	89.4899	260.569	
89.4403	1.45319	89.3685	317.843	89.4041	108.872	89.4185	209.913	89.4497	71.4928	89.4228	94.4323	89.4023	174.284	89.4298	-129.698	
89.38	99.0761	89.3071	106.587	89.3414	84.0974	89.3531	284.349	89.3878	126.282	89.3579	-74.2204	89.3374	1.26766	89.3669	-20.6432	
89.3168	-46.5557	89.2487	355.982	89.2793	110.744	89.2904	232.505	89.3225	183.544	89.2951	126.156	89.2756	77.6296	89.301	38.2896	
89.2511	216.31	89.1904	189.398	89.2178	229.389	89.2283	300.59	89.2575	38.3899	89.2334	-100.999	89.2147	86.2612	89.2361	-140.71	
89.1861	102.388	89.1364	271.542	89.1586	238.057	89.1668	318.937	89.1947	92.7615	89.1717	74.9215	89.1537	-11.1351	89.1742	130.615	
89.1243	263.758	89.0852	502.389	89.1002	211.155	89.1076	372.444	89.1331	59.6258	89.1127	-7.67903	89.095	200.943	89.1133	100.84	
89.063	272.785	89.036	265.344	89.0451	392.18	89.0492	484.414	89.0713	76.1497	89.054	-9.67729	89.0377	-55.6236	89.0524	100.216	
89.0016	427.587	88.9885	778.447	88.9933	397.307	88.9941	688.222	89.0123	234.21	88.999	-22.9355	88.9834	224.878	88.9937	277.927	
88.9432	482.931	88.9443	407.816	88.9431	735.919	88.9423	875.103	88.9536	129.952	88.9474	149.388	88.9333	59.2128	88.9363	-15.6887	
88.8849	531.169	88.9012	956.971	88.8954	849.351	88.8921	1397.29	88.8986	255.349	88.8972	-36.3245	88.884	-24.0158	88.8821	200.955	
88.8309	840.032	88.8655	894.9	88.8503	967.101	88.8444	1995.87	88.847	276.454	88.8493	321.925	88.8369	163.402	88.832	78.9504	
88.7797	1095.31	88.8081	1148.82	88.807	1396.09	88.7993	2496.31	88.7968	170.151	88.8043	181.304	88.7927	-207.743	88.7826	-106.07	
88.7305	1979.27	88.7354	1349.49	88.7714	1682.07	88.756	3902.81	88.749	218.825	88.7609	280.597	88.7499	191.151	88.7355	267.979	
88.683	2437.99	88.6424	1433.51	88.7197	2216.11	88.7204	5164.58	88.7039	196.782	88.7267	181.388	88.7168	111.429	88.6914	-97.0971	
88.6388	3566.74	88.5323	1934.18	88.654	2311.95	88.6687	6517.06	88.6606	-31.1774	88.6746	-78.6558	88.6625	38.0244	88.6486	104.466	
88.5957	4485.66	88.4223	2879.44	88.5674	2730.49	88.603	7599.11	88.6263	259.453	88.6092	379.9	88.5926	238.782	88.6154	-4.54811	
88.5601	6471.49	88.3265	4315.03	88.4622	3198.14	88.5164	8078.06	88.5742	19.6639	88.5221	-111.55	88.4998	38.2367	88.5612	-53.2342	
88.5027	7404.94	88.215	6668.95	88.3522	4247.99	88.4112	9057.46	88.5088	95.3725	88.4164	203.757	88.3895	132.488	88.4913	75.0888	
88.4299	8280.04	88.1012	9784.93	88.2541	5739.94	88.3012	10127.2	88.4217	-10.7951	88.3061	-27.002	88.2767	88.0283	88.3985	-79.8472	
88.337	9047.24	87.9804	14037.3	88.1447	7901.01	88.203	11554.1	88.316	-2.72889	88.209	53.2102	88.1831	56.6453	88.2882	38.4644	
88.2268	9799.84	87.8549	19619.2	88.0339	10737.6	88.0937	13420.7	88.2057	-5.10848	88.0994	94.8503	88.075	57.5654	88.1754	39.5087	
88.1169	11135.7	87.739	26018.6	87.9154	14252.9	87.9829	15318.3	88.1086	18.3483	87.9893	28.1021	87.9649	-7.04679	88.0818	34.8133	
88.021	12452.3	87.6389	32480.8	87.792	18866.2	87.8644	17817.2	87.999	-3.34766	87.8709	143.976	87.8468	46.4317	87.9737	108.552	
87.9096	14221.7	87.5506	38671	87.6747	24001.7	87.741	20579.6	87.8889	89.7106	87.7467	81.6845	87.7232	-2.00606	87.8636	72.6362	
87.7958	16238.6	87.4784	43334.9	87.5705	29070.1	87.6237	23492.5	87.7705	81.8688	87.6289	168.102	87.6079	12.1679	87.7455	60.9416	
87.675	18499.1	87.4224	45910.9	87.4782	33992.5	87.5195	25770.2	87.6464	165.269	87.5244	160.396	87.5097	-14.0136	87.6218	102.978	
87.5495	21287	87.3802	46472.3	87.4012	37488.6	87.4272	27636.9	87.5285	139.712	87.4322	266.993	87.4235	133.015	87.5066	38.9373	
87.4335	23645.9	87.3477	45501.9	87.3404	39484.5	87.3502	28729.5	87.424	186.676	87.3549	119.342	87.3527	215.16	87.4084	144.14	
87.3335	25365.4	87.3201	44435.3	87.2944	39627.9	87.2894	28889.9	87.3319	131.215	87.2938	310.893	87.298	283.917	87.3222	75.4603	
87.2451	26600.7	87.2959	39843.2	87.2592	38654.5	87.2434	28871.7	87.2546	168.825	87.2469	-73.7991	87.257	287.142	87.2513	84.4088	
87.1729	27265.7	87.2731	34396.1	87.2303	37213.4	87.2082	28110.1	87.1934	152.654	87.2105	229.647	87.2251	432.514	87.1967	237.303	
87.117	27597.3	87.2523	26061.1	87.205	33683.9	87.1793	27824.4	87.1465	183.307	87.1809	107.3	87.1988	290.208	87.1557	-111.064	
87.0748	27584.6	87.2326	18537.5	87.1812	29913.7	87.1539	26149	87.1101	357.892	87.1546	-238.98	87.1742	630.622	87.1238	388.928	
87.0422	28434.4	87.2127	13372.6	87.1584	23566.6	87.1302	23563	87.0806	421.798	87.1301	409.718	87.151	642.583	87.0974	-241.159	
87.0146	27993.6	87.1862	8815.79	87.1372	17383.9	87.1074	19550.6	87.0542	610.252	87.1061	201.117	87.1276	647.904	87.0728	-106.649	
86.9905	28082.7	87.1732	8178.39	87.1152	12763.1	87.0862	14659.4	87.0297	423.846	87.0842	407.204	87.1061	307.2	87.0497	286.691	
86.9676	23519.2	87.1707	8445.9	87.088	8463.69	87.0642	11056.6	87.0057	509.808	87.0613	344.182	87.0833	334.529	87.0262	-381.12	
86.9468	18783.3	87.1833	18855.6	87.07	7553.81	87.037	7282.49	86.9838	116.963	87.0326	479.754	87.0536	68.4511	87.0048	140.8	
86.9271	13343.9	87.2056	-14941.2	87.0617	7415.56	87.019	6336.65	86.9609	168.267	87.0146	-12.2922	87.0379	84.9993	86.982	-122.66	
86.9072	9135.82	87.2234	-4084.07	87.0687	12460.2	87.0106	6401.28	86.9322	-68.0942	87.0063	67.2182	87.0323	-293.604	86.9523	-2.97614	
86.8807	6771.64	87.1924	-2867.01	87.0879	-85918.5	87.0177	10233.2	86.9142	64.5342	87.0137	-847.448	87.0437	-175.379	86.9366	339.997	
86.8677	6056.23	87.1494	-3091.46	87.1095	-5906.85	87.0368	-73240.4	86.9059	-226.419	87.0333	-1063.84	87.0658	602.819	86.931	201.852	
86.8653	6852.25	87.0817	5091.07	87.0909	-3828.65	87.0585	-5389.62	86.9133	545.705	87.056	149.797	87.0883	252.494	86.9424	2096.58	
86.8778	16500	87.0156	1002.22	87.0562	-3161.82	87.0399	-3547.91	86.9329	-293.472	87.0342	85.0033	87.0569	-31.518	86.9644	-2192.07	
86.9001	-13191.2	86.9696	680.099	86.9931	-91291.4	87.0052	-3038.64	86.9556	-299.593	87.001	-199.287	87.0148	291.112	86.987	-290.541	
86.918	-4287.06	86.9367	736.602	86.9257	1522.26	86.9421	-89633.9	86.9338	-170.007	86.9369	10770.3	86.9423	569.581	86.9555	-455.579	
86.887	-2647.86	86.874	803.367	86.8719	703.241	86.8747	1704.63	86.9006	84.8816	86.8703	124.432	86.8719	-80.0967	86.9135	527.376	
86.8439	-2908.76	86.7947	1078.11	86.8353	725.708	86.8209	661.409	86.8365	-22759.8	86.8179	2.25022	86.8218	74.3666	86.8409	-626.539	
86.7762	4363.77	86.6862	1400.46	86.7783	697.935	86.7842	704.607	86.7699	-196.219	86.7829	62.2812	86.791	49.3766	86.7706	-181.552	
86.7102	556.791	86.5663	1811.52	86.7076	940.186	86.7273	750.645	86.7175	97.8846	86.7242	20.3894	86.7295	17.4862	86.7205	-176.382	
86.6642	623.504	86.4615	2344.34	86.6075	1125.54	86.6566	871.612	86.6825	99.0497	86.6537	65.6562	86.6529	54.0217	86.6897	52.0822	
86.6312	554.364	86.4004	3180.15	86.4904	1457.71	86.5565	1217.13	86.6238	21.6637	86.5524	132.872	86.5441	20.6	86.6282	-28.3398	
86.5685	724.959	86.3677	5217.03	86.3789	1864.79	86.4393	1413.35	86.5533	168.658	86.4349	147.315	86.421	73.2709	86.5516	112.792	
86.4892	910.308	86.3696	27704.5	86.3032	2528.25	86.3278	2015.59	86.452	20.0928	86.3245	179.757	86.3113	22.1513	86.4428	88.3808	
86.3807	1175.49	86.3837	-6709.44	86.2582	4010.45	86.2521	2621.84	86.3345	148.071	86.2507	126.84	86.2473	60.3204	86.3196	15.2983	
86.2608	1583.34	86.3895	-2911.33	86.2506	11299.3	86.2071	3943.25	86.2241	-67.2935	86.2062	11.9401	86.2141	215.722	86.21	174.189	
86.1561	1906.99	86.3871	-1605.8	86.2622	-9915.44	86.1996	12127.1	86.1503	-8.79088	86.1998	244.321	86.2191	452.583	86.146	38.7774	
86.095	2866.24	86.3993	-1057.51	86.2727	-3025.56	86.2111	-9945.03	86.1058	-97.5105	86.2113	487.423	86.2376	-634.879	86.1127	218.201	
86.0623	4477.56	86.4146	-900.481	86.275	-1760.7	86.2216	-3219.28	86.0994	-520.79	86.2213	34.0757	86.248	-201.719	86.1178	-196.775	
86.0641	24885	86.4454	-305.449	86.2866	-911.696	86.2239	-1829.17	86.1109	-380.974	86.2231	186.943	86.2459	-157.207	86.1363	204.453	
86.0782	-6320.83	86.4731	-1394.48	86.3006	-924.97	86.2355	-1068.18	86.1209	-4.25946	86.2357	100.504	86.2581	-162.291	86.1467	47.2495	
86.084	-2535.05	86.4855	-1429.74	86.3286	-513.203	86.2496	-809.534	86.1228	-114.815	86.2498	-33.971	86.2716	64.7332	86.1446	-39.6434	
86.0817	-1439.73	86.4811	265.322	86.3572	-1161.06	86.2776	-523.676	86.1353	-42.103	86.2792	-194.447	86.3024	36.4508	86.1568	29.7534	
86.0938	-957.883	86.4623	42.1803	86.3753	1289.23	86.3062	-151.649	86.1494	-25.109	86.3081	-416.954	86.3305	1781.16	86.1703	-276.3	
86.1091	-606.379	86.4308	229.538	86.377	360.13	86.3243	-1698.51	86.1788	54.9524	86.3259	2068.43	86.3435	-789.912	86.2011	-13.0182	
86.1399	-597.617	86.3898	487.641	86.3637	450.468	86.326	-193.333	86.2077	115.022	86.3274	190.756	86.3381	-90.9973	86.2291	-1662.42	
86.1676	-407.91	86.3408	540.753	86.3359	162.72	86.3127	-103.232	86.2255	-2536.75	86.3138	219.48	86.3169	-234.132	86.2422	445.439	
86.18	-235.755	86.2873	806.071	86.297	460.413	86.2848	295.515	86.2271	175.495	86.2862	39.5152	86.2823	179.572	86.2368	-13.7875	
86.1756	287.432	86.2311	662.985	86.2493	417.189	86.246	298.109	86.2134	-155.76	86.2473	-64.9349	86.2378	-73.1698	86.2156	21.8258	
86.1569	-93.2407	86.1736	979.495	86.1958	551.382	86.1983	516.816	86.1858	124.191	86.2	-40.5516	86.1859	40.2464	86.181	-255.805	
86.1254	438.715	86.1158	758.517	86.1392	478.689	86.1448	702.302	86.1469	68.2649	86.1466	-273.27	86.1295	75.6053	86.1365	98.0787	
86.0843	111.89	86.0573	1095.46	86.0808	696.03	86.0882	560.168	86.0996	9.35805	86.0904	103.508	86.0708	-46.7154	86.0846	-143.098	
86.0354	483.998	85.9985	989.074	86.0226	588.803	86.0298	840.623	86.0462	189.187	86.0324	-246.432	86.0113	107.136	86.0282	127.947	
85.9819	379.594	85.9381	1379.88	85.9639	789.078	85.9716	620.818	85.99	-51.0252	85.9742	198.184	85.9519	-56.0487	85.9695	-53.7935	
85.9257	474.188	85.8777	1292.25	85.9051	894.48	85.9128	835.736	85.932	113.957	85.9158	-49.6292	85.8929	180.392	85.9099	33.3931	
85.8681	658.675	85.8171	1352.34	85.8449	1059.38	85.8541	955.746	85.8738	64.2004	85.857	117.714	85.8335	157.062	85.8506	-90.2248	
85.8104	575.139	85.7577	1401.55	85.7847	1191.79	85.7939	1026.7	85.8154	103.394	85.7976	317.873	85.7734	99.0995	85.7916	-169.542	
85.7518	913.565	85.6993	1244.34	85.724	1278.93	85.7337	1212.31	85.7567	229.953	85.7373	-57.8058	85.7124	221.389	85.7322	128.628	
85.693	794.524	85.6413	1349.33	85.6645	1246.54	85.673	1126.51	85.6972	112.352	85.6774	313.399	85.6522	34.8388	85.6721	-84.1667	
85.6327	1084.87	85.583	1128.5	85.6061	1261.46	85.6135	1149.9	85.6369	198.191	85.6177	-93.0318	85.5926	179.951	85.6111	277.768	
85.5722	986.986	85.5247	1387.98	85.5479	1084.79	85.5551	1261.46	85.577	-86.359	85.5599	217.69	85.5348	120.785	85.5509	133.781	
85.5116	1173.6	85.4665	1154.95	85.49	1148.86	85.4969	1022.84	85.5174	102.899	85.502	78.3151	85.4772	107.77	85.4913	225.292	
85.4522	1071.85	85.4084	1352.13	85.432	1036.79	85.439	1268.56	85.4595	-84.4979	85.4444	61.4874	85.4193	75.0395	85.4334	234.381	
85.3938	1040.28	85.3515	1555.85	85.3739	1103.41	85.381	1082.38	85.4016	-79.7654	85.3866	181.86	85.362	-62.274	85.3759	66.9924	
85.3359	1026.41	85.2944	1248.18	85.3159	1289.26	85.3229	1168.23	85.344	60.0234	85.3287	72.3877	85.3039	23.6867	85.318	54.4405	
85.2775	1077.4	85.2377	1472.14	85.2588	1293.09	85.2649	1187.82	85.2862	-155.246	85.2711	106.321	85.2468	32.479	85.2607	-84.5148	
85.2192	1013.84	85.181	1060.73	85.2018	1410.7	85.2078	1180.96	85.2283	130.002	85.2141	100.725	85.1898	32.1491	85.2026	-146.562	
85.161	921.314	85.1237	1190	85.145	1313.86	85.1508	1096.41	85.1707	20.6736	85.1573	-59.4747	85.1336	87.2176	85.1455	-23.6211	
85.103	1046.62	85.0663	1107.18	85.0885	1356.34	85.094	1240.47	85.1137	106.564	85.1004	92.355	85.0768	112.968	85.0885	21.9199	
85.0461	919.89	85.0088	910.742	85.0313	1190.2	85.0375	985.905	85.0569	120.4	85.0443	-64.9722	85.0209	149.253	85.0323	-148.27	
84.989	1119.9	84.9517	1144.46	84.9744	1096.4	84.9803	1187.3	85	174.609	84.9871	78.3472	84.9637	21.8796	84.9755	285.317	
84.9322	1091.54	84.895	880.563	84.9168	1023.13	84.9234	1186.79	84.944	385.502	84.9303	176.435	84.9069	99.6678	84.9195	-113.027	
84.8756	1112.69	84.8389	1112.9	84.8598	866.648	84.8658	958.541	84.8868	214.729	84.8728	-82.3492	84.8497	85.8014	84.8623	176.496	
84.8182	1108.93	84.782	1041.23	84.803	1051.32	84.8088	1359.77	84.83	291.628	84.8157	199.431	84.7929	23.7138	84.8056	197.87	
84.7608	1050.21	84.7252	1063.62	84.7467	853.817	84.7519	922.132	84.7725	132.347	84.7589	-57.9721	84.7363	110.231	84.7484	0	
84.7033	1261.82	84.6674	924.678	84.6902	1037.4	84.6957	1349.77	84.7153	-97.4996	84.7028	23.7525	84.6803	20.8322	84.6916	367.564	
84.6463	1060.28	84.6092	917.778	84.6337	980.684	84.6392	1178.59	84.6586	-99.5931	84.6463	29.6711	84.6241	87.6875	84.635	-78.9492	
84.5895	1049.56	84.5517	857.569	84.5761	868.658	84.5827	1206.66	84.6024	-203.38	84.5897	-125.58	84.5676	-79.9933	84.579	270.819	
84.5334	993.026	84.4942	865.012	84.5181	1133.88	84.5251	1305.92	84.5459	-94.9475	84.5323	137.822	84.5101	-16.12	84.5227	26.7521	
84.4765	773.526	84.4383	954.693	84.4606	948.131	84.4671	1020.78	84.4893	-7.38708	84.4741	58.0266	84.4519	-185.708	84.4662	-62.217	
84.4197	1065.09	84.383	888.171	84.403	1117.96	84.4096	1152.12	84.4319	39.5873	84.4166	111.981	84.3943	-48.8003	84.4088	128.96	
84.362	651.511	84.3277	1070.47	84.3468	1011.57	84.352	941.138	84.3738	397.482	84.3591	276.641	84.3372	-137.037	84.3506	-217.626	
84.3037	919.221	84.2723	1061.7	84.2912	883.466	84.2958	915.979	84.3162	93.3173	84.3028	105.74	84.2814	157.614	84.293	-44.4944	
84.2462	775.964	84.2174	1064.98	84.2358	1013.54	84.2402	877.692	84.2587	221.027	84.2476	159.129	84.2267	69.7207	84.2359	34.2594	
84.1888	862.166	84.1635	996.39	84.1807	733.287	84.1848	792.887	84.2025	295.786	84.1922	25.0528	84.1716	217.312	84.18	53.0157	
84.1328	1023.4	84.1106	1102.86	84.1258	774.359	84.1297	1069.63	84.1473	-109.944	84.1369	18.195	84.1167	245.557	84.1254	136.536	
84.0775	846.085	84.059	901.626	84.0716	821.612	84.0747	691.948	84.0918	340.424	84.0819	-46.7141	84.062	278.127	84.0703	89.3064	
84.0222	1046.75	84.0077	1004.61	84.0184	739.496	84.0206	1181.97	84.0366	-72.7799	84.0278	54.5151	84.0081	194.881	84.0154	72.1323	
83.9668	814.226	83.957	862.261	83.9666	995.296	83.9674	842.34	83.9816	305.199	83.9749	17.9795	83.9556	218.049	83.9606	178.57	
83.912	953.781	83.9055	1055.64	83.9153	893.25	83.9156	1038.21	83.9275	24.0508	83.9231	191.166	83.904	197.578	83.9068	-1.62401	
83.858	904.49	83.854	858.002	83.8646	946.727	83.8643	1041.02	83.8745	40.8624	83.8719	333.631	83.8536	-3.3336	83.8542	158.581	
83.8051	846.343	83.8015	855.152	83.8135	1011.5	83.8136	705.08	83.8227	-26.3677	83.821	62.8984	83.8028	201.881	83.8027	44.8285	
83.7536	736.795	83.7487	916.995	83.7621	708.753	83.7625	1037.9	83.7715	39.8365	83.7699	463.764	83.7518	-72.37	83.7523	140.011	
83.7023	799.723	83.6956	514.386	83.7101	804.014	83.7111	772.296	83.7206	-48.0014	83.7186	-11.4163	83.7002	87.6486	83.7014	158.857	
83.6515	771.584	83.6421	742.674	83.6574	654.75	83.6591	834.628	83.6695	130.382	83.6665	75.5773	83.6479	-158.325	83.6504	236.847	
83.6001	697.742	83.5882	360.454	83.6046	588.726	83.6064	1060.6	83.6182	252.789	83.6139	3.17373	83.5952	-7.90028	83.5988	32.4624	
83.5485	702.591	83.5334	616.986	83.5511	792.417	83.5536	671.491	83.5661	-48.2409	83.561	-202.825	83.5423	-150.268	83.5466	126.34	
83.496	642.164	83.4789	441.709	83.4975	569.971	83.5001	953.978	83.5135	377.674	83.5077	-6.16309	83.4887	128.822	83.4939	18.9607	
83.4432	598.725	83.4239	635.11	83.443	940.26	83.4465	756.921	83.4607	-76.4496	83.454	-110.981	83.4348	15.1507	83.441	-75.9083	
83.3901	685.33	83.3687	878.283	83.3885	651.569	83.392	639.92	83.4073	163.322	83.3996	12.0719	83.3803	208.065	83.3873	12.2688	
83.3366	713.58	83.3133	688.676	83.3336	785.466	83.3375	917.301	83.3536	-97.2987	83.3449	179.031	83.3257	204.977	83.3334	-59.0878	
83.2827	619.436	83.2577	1096.87	83.2784	749.611	83.2826	496.559	83.2993	58.8504	83.2903	-54.2024	83.2711	143.21	83.279	78.4014	
83.2279	866.791	83.2028	612.55	83.2232	628.708	83.2274	880.567	83.2445	166.996	83.235	235.139	83.2158	310.493	83.2244	102.488	
83.1735	606.975	83.1479	826.119	83.1676	696.669	83.1722	593.948	83.1899	69.2587	83.1799	95.1362	83.1609	0	83.1698	57.2841	
83.1184	842.8	83.0934	676.601	83.1127	586.2	83.1166	714.804	83.1346	104.004	83.1243	122.54	83.1054	124.757	83.1145	222.646	
83.0633	557.401	83.0382	583.264	83.0575	591.449	83.0617	569.495	83.0795	155.54	83.0694	68.3775	83.0508	-36.6434	83.0595	101.651	
83.0078	653.94	82.9826	697.65	83.0031	651.199	83.0065	588.408	83.0239	-7.56417	83.0144	-13.6976	82.9961	44.2976	83.0041	209.956	
82.9522	611.893	82.927	458.59	82.9482	573.969	82.9521	569.038	82.9691	16.7145	82.9599	80.612	82.9415	51.9079	82.9494	215.28	
82.8973	459.032	82.873	822.678	82.8927	719.294	82.8971	560.267	82.914	115.668	82.9048	-182.63	82.8869	167.822	82.8948	53.4626	
82.8425	592.254	82.8192	486.073	82.8371	722.715	82.8417	766.237	82.8595	53.2343	82.8493	152.957	82.8313	103.164	82.8402	175.571	
82.7879	381.633	82.7657	712.156	82.7828	636.602	82.7861	619.686	82.8045	193.283	82.794	-248.38	82.7761	221.265	82.7856	131.206	
82.7328	557.443	82.7113	630.072	82.7289	893.624	82.7318	787.814	82.7489	174.159	82.7395	229.707	82.7221	250.169	82.73	109.233	
82.6771	473.676	82.6546	496.258	82.6754	622.753	82.6779	657.659	82.6936	227.177	82.6856	-59.2557	82.6687	-15.2599	82.6748	-40.9188	
82.6215	650.804	82.5984	588.844	82.6214	773.654	82.6244	781.885	82.6391	259.932	82.6319	218.476	82.6152	207.58	82.6208	-47.0015	
82.5676	665.401	82.5431	600.035	82.5653	548.257	82.5704	759.811	82.5852	65.3332	82.5778	185.913	82.561	-274.554	82.5673	-155.651	
82.5138	696.349	82.4906	607.722	82.5091	602.774	82.5142	686.862	82.5315	232.226	82.5217	81.5335	82.5044	115.642	82.5139	56.8922	
82.4603	802.516	82.4399	734.9	82.4535	436.027	82.4581	797.564	82.4775	-43.0213	82.4656	304.598	82.448	-81.1895	82.4596	29.3064	
82.4059	724.044	82.3894	516.858	82.4002	673.38	82.4025	823.269	82.4213	-92.3021	82.4099	57.8859	82.393	92.8261	82.403	-33.9217	
82.3492	533.132	82.3376	797.253	82.3488	678.582	82.3492	836.025	82.3652	177.555	82.3566	272.082	82.3402	271.883	82.3467	284.929	
82.2929	682.141	82.285	642.175	82.2983	647.607	82.2978	866.992	82.3096	-181.274	82.3053	128.911	82.2898	168.891	82.2916	80.6522	
82.2377	261.281	82.232	586.688	82.2472	831.5	82.2473	806.396	82.2562	202.161	82.2548	196.47	82.2395	371.815	82.2389	241.505	
82.1852	628.992	82.1804	789.384	82.1949	467.89	82.1962	603.56	82.205	-46.0397	82.2035	178.242	82.1882	251.584	82.1885	76.7688	
82.1344	430.485	82.1301	446.805	82.1422	957.077	82.1439	710.928	82.1544	37.4229	82.1512	120.827	82.136	273.795	82.1382	-136.489	
82.084	458.907	82.0806	707.093	82.0902	293.737	82.0912	599.021	82.1031	195.905	82.0984	77.9888	82.0829	80.6122	82.0869	22.7237	
82.0322	832.903	82.0317	543.956	82.0395	780.14	82.0392	487.844	82.0508	-135.723	82.0465	128.702	82.0311	164.368	82.0346	-35.2741	
81.9796	366.957	81.9817	620.746	81.9899	624.12	81.9885	701.441	81.998	161.064	81.9959	90.398	81.9808	-138.563	81.9816	20.5818	
81.9265	926.081	81.9309	720.007	81.9408	537.731	81.9388	492.192	81.9461	-63.4931	81.9462	175.325	81.9316	121.148	81.9298	276.83	
81.8749	386.112	81.8794	526.277	81.891	828.43	81.8898	793.32	81.8955	-47.7574	81.897	197.208	81.8828	-70.988	81.8795	-32.5024	
81.8246	657.467	81.827	634.949	81.8406	547.856	81.84	730.197	81.8458	261.301	81.8473	204.501	81.8331	64.9241	81.8303	413.922	
81.7752	517.753	81.7746	503.743	81.7893	692.131	81.7896	577.031	81.7966	0	81.7967	205.823	81.7822	33.8783	81.7814	346.686	
81.7262	354.396	81.7215	517.323	81.7374	505.03	81.7383	759.735	81.747	325.565	81.7453	9.64971	81.7305	108.881	81.7318	173.672	
81.6762	607.712	81.6685	569.701	81.685	512.634	81.6864	471.361	81.6963	294.959	81.6933	134.668	81.6784	70.388	81.6809	354.916	
81.6254	207.103	81.6149	538.76	81.6321	509.091	81.634	692.534	81.6449	180.128	81.6408	-97.0904	81.6256	90.5139	81.6292	-158.518	
81.5739	558.465	81.5615	741.502	81.579	563.174	81.581	681.423	81.593	439.274	81.5881	22.1494	81.5728	-18.9212	81.5771	145.575	
81.5216	338.319	81.5077	538.566	81.5255	551.709	81.5279	627.492	81.5404	-7.95823	81.535	3.13344	81.5194	-14.0896	81.5243	-136.565	
81.4691	553.161	81.4532	765.65	81.472	799.53	81.4745	857.868	81.4877	257.882	81.4814	-37.273	81.466	40.3103	81.4714	18.9212	
81.4161	528.364	81.3981	661.007	81.4184	582.535	81.421	680.681	81.4346	-159.806	81.4278	37.0256	81.4124	38.5778	81.418	-120.544	
81.3631	597.873	81.343	726.679	81.3641	692.341	81.3674	695.976	81.381	-80.7581	81.3742	-42.9006	81.3587	116.289	81.3647	9.30237	
81.3094	670.354	81.288	666.591	81.3094	653.498	81.313	649.641	81.3275	3.08546	81.3198	123.538	81.3042	10.675	81.3111	135.794	
81.2561	707.657	81.2339	552.836	81.2543	497.694	81.2584	556.233	81.2739	-182.327	81.2652	56.0973	81.2495	109.257	81.2574	33.6627	
81.2022	670.148	81.1808	594.941	81.1994	576.237	81.2033	426.595	81.2195	149.465	81.21	152.629	81.1946	83.2982	81.2029	300.425	
81.1477	657.791	81.1276	420.66	81.1451	503.074	81.1483	499.103	81.1648	-12.1291	81.155	131.429	81.1396	157.482	81.1481	113.809	
81.0927	545.786	81.0754	627.503	81.0916	447.376	81.0941	595.506	81.1096	93.693	81.1007	206.017	81.086	130.813	81.0933	178.713	
81.0375	396.507	81.0238	400.951	81.0386	510.761	81.0406	461.118	81.0546	126.897	81.0472	-9.15584	81.0326	158.172	81.0383	249.851	
80.9825	497.298	80.9732	574.048	80.9862	549.591	80.9876	687.205	81.0004	63.6228	80.9943	238.2	80.98	116.99	80.9847	182.53	
80.9285	295.35	80.9235	536.595	80.9345	506.288	80.9352	559.04	80.9469	105.292	80.9417	14.1863	80.9277	218.183	80.9312	290.237	
80.8754	396.117	80.8741	596.654	80.8836	624.769	80.8835	577.46	80.8939	30.9351	80.8901	1.61849	80.8765	182.897	80.8787	23.3979	
80.8221	425.317	80.8241	730.333	80.8339	485.598	80.8326	721.144	80.8413	225.405	80.8392	131.408	80.8259	75.7126	80.8264	106.702	
80.77	347.028	80.774	675.243	80.7844	587.22	80.7829	507.826	80.7897	145.664	80.7894	-34.1654	80.7765	75.798	80.7751	-55.5224	
80.7183	482.446	80.724	731.015	80.7349	645.199	80.7334	796.319	80.7388	224.558	80.7398	390.018	80.7273	-43.865	80.7246	-159.838	

